# z (A),  sld (10^-6 A^-2)
-3.9867e+01 3.5000e-06
-3.8320e+01 3.5000e-06
-3.6773e+01 3.5001e-06
-3.5226e+01 3.5002e-06
-3.3680e+01 3.5004e-06
-3.2133e+01 3.5009e-06
-3.0586e+01 3.5018e-06
-2.9039e+01 3.5034e-06
-2.7492e+01 3.5064e-06
-2.5946e+01 3.5115e-06
-2.4399e+01 3.5203e-06
-2.2852e+01 3.5347e-06
-2.1305e+01 3.5575e-06
-1.9758e+01 3.5927e-06
-1.8212e+01 3.6453e-06
-1.6665e+01 3.7213e-06
-1.5118e+01 3.8281e-06
-1.3571e+01 3.9731e-06
-1.2024e+01 4.1643e-06
-1.0478e+01 4.4082e-06
-8.9308e+00 4.7100e-06
-7.3840e+00 5.0718e-06
-5.8372e+00 5.4921e-06
-4.2904e+00 5.9652e-06
-2.7436e+00 6.4815e-06
-1.1968e+00 7.0273e-06
3.4997e-01 7.5866e-06
1.8968e+00 8.1419e-06
3.4436e+00 8.6762e-06
4.9904e+00 9.1744e-06
6.5372e+00 9.6246e-06
8.0840e+00 1.0019e-05
9.6308e+00 1.0353e-05
1.1178e+01 1.0629e-05
1.2724e+01 1.0848e-05
1.4271e+01 1.1017e-05
1.5818e+01 1.1144e-05
1.7365e+01 1.1236e-05
1.8912e+01 1.1301e-05
2.0458e+01 1.1345e-05
2.2005e+01 1.1374e-05
2.3552e+01 1.1392e-05
2.5099e+01 1.1404e-05
2.6646e+01 1.1411e-05
2.8192e+01 1.1415e-05
2.9739e+01 1.1417e-05
3.1286e+01 1.1418e-05
3.2833e+01 1.1419e-05
3.4380e+01 1.1419e-05
3.5926e+01 1.1419e-05
3.7473e+01 1.1419e-05
3.9020e+01 1.1420e-05
4.0567e+01 1.1420e-05
4.2114e+01 1.1420e-05
4.3660e+01 1.1420e-05
4.5207e+01 1.1420e-05
4.6754e+01 1.1420e-05
4.8301e+01 1.1420e-05
4.9848e+01 1.1420e-05
5.1394e+01 1.1420e-05
5.2941e+01 1.1420e-05
5.4488e+01 1.1420e-05
5.6035e+01 1.1420e-05
5.7582e+01 1.1420e-05
5.9128e+01 1.1420e-05
6.0675e+01 1.1420e-05
6.2222e+01 1.1420e-05
6.3769e+01 1.1420e-05
6.5316e+01 1.1420e-05
6.6862e+01 1.1420e-05
6.8409e+01 1.1420e-05
6.9956e+01 1.1420e-05
7.1503e+01 1.1420e-05
7.3050e+01 1.1420e-05
7.4596e+01 1.1420e-05
7.6143e+01 1.1420e-05
7.7690e+01 1.1420e-05
7.9237e+01 1.1420e-05
8.0784e+01 1.1420e-05
8.2330e+01 1.1420e-05
8.3877e+01 1.1420e-05
8.5424e+01 1.1420e-05
8.6971e+01 1.1420e-05
8.8518e+01 1.1420e-05
9.0064e+01 1.1420e-05
9.1611e+01 1.1420e-05
9.3158e+01 1.1420e-05
9.4705e+01 1.1420e-05
9.6252e+01 1.1420e-05
9.7798e+01 1.1420e-05
9.9345e+01 1.1420e-05
1.0089e+02 1.1420e-05
1.0244e+02 1.1420e-05
1.0399e+02 1.1420e-05
1.0553e+02 1.1420e-05
1.0708e+02 1.1420e-05
1.0863e+02 1.1420e-05
1.1017e+02 1.1420e-05
1.1172e+02 1.1420e-05
1.1327e+02 1.1420e-05
1.1481e+02 1.1420e-05
1.1636e+02 1.1420e-05
1.1791e+02 1.1420e-05
1.1945e+02 1.1420e-05
1.2100e+02 1.1420e-05
1.2255e+02 1.1420e-05
1.2409e+02 1.1420e-05
1.2564e+02 1.1420e-05
1.2719e+02 1.1420e-05
1.2873e+02 1.1420e-05
1.3028e+02 1.1420e-05
1.3183e+02 1.1420e-05
1.3337e+02 1.1420e-05
1.3492e+02 1.1420e-05
1.3647e+02 1.1420e-05
1.3802e+02 1.1420e-05
1.3956e+02 1.1420e-05
1.4111e+02 1.1420e-05
1.4266e+02 1.1419e-05
1.4420e+02 1.1419e-05
1.4575e+02 1.1419e-05
1.4730e+02 1.1419e-05
1.4884e+02 1.1419e-05
1.5039e+02 1.1419e-05
1.5194e+02 1.1419e-05
1.5348e+02 1.1419e-05
1.5503e+02 1.1419e-05
1.5658e+02 1.1419e-05
1.5812e+02 1.1419e-05
1.5967e+02 1.1419e-05
1.6122e+02 1.1419e-05
1.6276e+02 1.1419e-05
1.6431e+02 1.1418e-05
1.6586e+02 1.1418e-05
1.6740e+02 1.1418e-05
1.6895e+02 1.1418e-05
1.7050e+02 1.1417e-05
1.7204e+02 1.1417e-05
1.7359e+02 1.1416e-05
1.7514e+02 1.1415e-05
1.7669e+02 1.1414e-05
1.7823e+02 1.1413e-05
1.7978e+02 1.1412e-05
1.8133e+02 1.1410e-05
1.8287e+02 1.1408e-05
1.8442e+02 1.1406e-05
1.8597e+02 1.1403e-05
1.8751e+02 1.1400e-05
1.8906e+02 1.1397e-05
1.9061e+02 1.1393e-05
1.9215e+02 1.1388e-05
1.9370e+02 1.1383e-05
1.9525e+02 1.1377e-05
1.9679e+02 1.1370e-05
1.9834e+02 1.1363e-05
1.9989e+02 1.1354e-05
2.0143e+02 1.1345e-05
2.0298e+02 1.1334e-05
2.0453e+02 1.1322e-05
2.0607e+02 1.1309e-05
2.0762e+02 1.1295e-05
2.0917e+02 1.1279e-05
2.1071e+02 1.1262e-05
2.1226e+02 1.1244e-05
2.1381e+02 1.1224e-05
2.1536e+02 1.1202e-05
2.1690e+02 1.1179e-05
2.1845e+02 1.1154e-05
2.2000e+02 1.1127e-05
2.2154e+02 1.1099e-05
2.2309e+02 1.1070e-05
2.2464e+02 1.1039e-05
2.2618e+02 1.1006e-05
2.2773e+02 1.0972e-05
2.2928e+02 1.0937e-05
2.3082e+02 1.0900e-05
2.3237e+02 1.0862e-05
2.3392e+02 1.0824e-05
2.3546e+02 1.0784e-05
2.3701e+02 1.0744e-05
2.3856e+02 1.0703e-05
2.4010e+02 1.0662e-05
2.4165e+02 1.0621e-05
2.4320e+02 1.0580e-05
2.4474e+02 1.0538e-05
2.4629e+02 1.0497e-05
2.4784e+02 1.0457e-05
2.4938e+02 1.0417e-05
2.5093e+02 1.0378e-05
2.5248e+02 1.0340e-05
2.5403e+02 1.0302e-05
2.5557e+02 1.0266e-05
2.5712e+02 1.0232e-05
2.5867e+02 1.0198e-05
2.6021e+02 1.0166e-05
2.6176e+02 1.0136e-05
2.6331e+02 1.0107e-05
2.6485e+02 1.0079e-05
2.6640e+02 1.0054e-05
2.6795e+02 1.0030e-05
2.6949e+02 1.0007e-05
2.7104e+02 9.9861e-06
2.7259e+02 9.9666e-06
2.7413e+02 9.9487e-06
2.7568e+02 9.9323e-06
2.7723e+02 9.9173e-06
2.7877e+02 9.9035e-06
2.8032e+02 9.8911e-06
2.8187e+02 9.8799e-06
2.8341e+02 9.8697e-06
2.8496e+02 9.8607e-06
2.8651e+02 9.8526e-06
2.8805e+02 9.8454e-06
2.8960e+02 9.8390e-06
2.9115e+02 9.8334e-06
2.9270e+02 9.8285e-06
2.9424e+02 9.8242e-06
2.9579e+02 9.8204e-06
2.9734e+02 9.8172e-06
2.9888e+02 9.8143e-06
3.0043e+02 9.8119e-06
3.0198e+02 9.8099e-06
3.0352e+02 9.8081e-06
3.0507e+02 9.8066e-06
3.0662e+02 9.8053e-06
3.0816e+02 9.8042e-06
3.0971e+02 9.8033e-06
3.1126e+02 9.8026e-06
3.1280e+02 9.8020e-06
3.1435e+02 9.8014e-06
3.1590e+02 9.8010e-06
3.1744e+02 9.8007e-06
3.1899e+02 9.8004e-06
3.2054e+02 9.8001e-06
3.2208e+02 9.7999e-06
3.2363e+02 9.7998e-06
3.2518e+02 9.7997e-06
3.2673e+02 9.7996e-06
3.2827e+02 9.7995e-06
3.2982e+02 9.7994e-06
3.3137e+02 9.7994e-06
3.3291e+02 9.7993e-06
3.3446e+02 9.7993e-06
3.3601e+02 9.7993e-06
3.3755e+02 9.7993e-06
3.3910e+02 9.7992e-06
3.4065e+02 9.7992e-06
3.4219e+02 9.7992e-06
3.4374e+02 9.7992e-06
3.4529e+02 9.7992e-06
3.4683e+02 9.7992e-06
3.4838e+02 9.7992e-06
3.4993e+02 9.7992e-06
3.5147e+02 9.7992e-06
3.5302e+02 9.7992e-06
3.5457e+02 9.7992e-06
3.5611e+02 9.7992e-06
3.5766e+02 9.7992e-06
3.5921e+02 9.7992e-06
3.6075e+02 9.7992e-06
3.6230e+02 9.7992e-06
3.6385e+02 9.7992e-06
3.6540e+02 9.7992e-06
3.6694e+02 9.7992e-06
3.6849e+02 9.7992e-06
3.7004e+02 9.7992e-06
3.7158e+02 9.7992e-06
3.7313e+02 9.7992e-06
3.7468e+02 9.7992e-06
3.7622e+02 9.7992e-06
3.7777e+02 9.7992e-06
3.7932e+02 9.7992e-06
3.8086e+02 9.7992e-06
3.8241e+02 9.7992e-06
3.8396e+02 9.7992e-06
3.8550e+02 9.7992e-06
3.8705e+02 9.7992e-06
3.8860e+02 9.7992e-06
3.9014e+02 9.7992e-06
3.9169e+02 9.7992e-06
3.9324e+02 9.7992e-06
3.9478e+02 9.7992e-06
3.9633e+02 9.7992e-06
3.9788e+02 9.7992e-06
3.9942e+02 9.7992e-06
4.0097e+02 9.7992e-06
4.0252e+02 9.7992e-06
4.0407e+02 9.7992e-06
4.0561e+02 9.7992e-06
4.0716e+02 9.7992e-06
4.0871e+02 9.7992e-06
4.1025e+02 9.7992e-06
4.1180e+02 9.7992e-06
4.1335e+02 9.7992e-06
4.1489e+02 9.7992e-06
4.1644e+02 9.7992e-06
4.1799e+02 9.7992e-06
4.1953e+02 9.7992e-06
4.2108e+02 9.7992e-06
4.2263e+02 9.7992e-06
4.2417e+02 9.7992e-06
4.2572e+02 9.7992e-06
4.2727e+02 9.7992e-06
4.2881e+02 9.7992e-06
4.3036e+02 9.7992e-06
4.3191e+02 9.7992e-06
4.3345e+02 9.7992e-06
4.3500e+02 9.7992e-06
4.3655e+02 9.7992e-06
4.3809e+02 9.7992e-06
4.3964e+02 9.7992e-06
4.4119e+02 9.7992e-06
4.4274e+02 9.7992e-06
4.4428e+02 9.7992e-06
4.4583e+02 9.7992e-06
4.4738e+02 9.7992e-06
4.4892e+02 9.7992e-06
4.5047e+02 9.7992e-06
4.5202e+02 9.7992e-06
4.5356e+02 9.7992e-06
4.5511e+02 9.7992e-06
4.5666e+02 9.7992e-06
4.5820e+02 9.7992e-06
4.5975e+02 9.7992e-06
4.6130e+02 9.7992e-06
4.6284e+02 9.7992e-06
4.6439e+02 9.7992e-06
4.6594e+02 9.7992e-06
4.6748e+02 9.7992e-06
4.6903e+02 9.7992e-06
4.7058e+02 9.7992e-06
4.7212e+02 9.7992e-06
4.7367e+02 9.7992e-06
4.7522e+02 9.7992e-06
4.7676e+02 9.7992e-06
4.7831e+02 9.7992e-06
4.7986e+02 9.7992e-06
4.8141e+02 9.7992e-06
4.8295e+02 9.7992e-06
4.8450e+02 9.7992e-06
4.8605e+02 9.7992e-06
4.8759e+02 9.7992e-06
4.8914e+02 9.7992e-06
4.9069e+02 9.7992e-06
4.9223e+02 9.7992e-06
4.9378e+02 9.7992e-06
4.9533e+02 9.7992e-06
4.9687e+02 9.7992e-06
4.9842e+02 9.7992e-06
4.9997e+02 9.7992e-06
5.0151e+02 9.7992e-06
5.0306e+02 9.7992e-06
5.0461e+02 9.7992e-06
5.0615e+02 9.7992e-06
5.0770e+02 9.7992e-06
5.0925e+02 9.7992e-06
5.1079e+02 9.7992e-06
5.1234e+02 9.7992e-06
5.1389e+02 9.7992e-06
5.1543e+02 9.7992e-06
5.1698e+02 9.7992e-06
5.1853e+02 9.7992e-06
5.2008e+02 9.7992e-06
5.2162e+02 9.7992e-06
5.2317e+02 9.7992e-06
5.2472e+02 9.7992e-06
5.2626e+02 9.7992e-06
5.2781e+02 9.7992e-06
5.2936e+02 9.7992e-06
5.3090e+02 9.7992e-06
5.3245e+02 9.7992e-06
5.3400e+02 9.7992e-06
5.3554e+02 9.7992e-06
5.3709e+02 9.7992e-06
5.3864e+02 9.7992e-06
5.4018e+02 9.7992e-06
5.4173e+02 9.7992e-06
5.4328e+02 9.7992e-06
5.4482e+02 9.7992e-06
5.4637e+02 9.7992e-06
5.4792e+02 9.7992e-06
5.4946e+02 9.7992e-06
5.5101e+02 9.7992e-06
5.5256e+02 9.7992e-06
5.5410e+02 9.7992e-06
5.5565e+02 9.7992e-06
5.5720e+02 9.7992e-06
5.5875e+02 9.7992e-06
5.6029e+02 9.7992e-06
5.6184e+02 9.7992e-06
5.6339e+02 9.7992e-06
5.6493e+02 9.7992e-06
5.6648e+02 9.7992e-06
5.6803e+02 9.7992e-06
5.6957e+02 9.7992e-06
5.7112e+02 9.7992e-06
5.7267e+02 9.7992e-06
5.7421e+02 9.7992e-06
5.7576e+02 9.7992e-06
5.7731e+02 9.7992e-06
5.7885e+02 9.7992e-06
5.8040e+02 9.7992e-06
5.8195e+02 9.7992e-06
5.8349e+02 9.7992e-06
5.8504e+02 9.7992e-06
5.8659e+02 9.7992e-06
5.8813e+02 9.7992e-06
5.8968e+02 9.7992e-06
5.9123e+02 9.7992e-06
5.9277e+02 9.7992e-06
5.9432e+02 9.7992e-06
5.9587e+02 9.7992e-06
5.9742e+02 9.7992e-06
5.9896e+02 9.7992e-06
6.0051e+02 9.7992e-06
6.0206e+02 9.7992e-06
6.0360e+02 9.7992e-06
6.0515e+02 9.7992e-06
6.0670e+02 9.7992e-06
6.0824e+02 9.7992e-06
6.0979e+02 9.7992e-06
6.1134e+02 9.7992e-06
6.1288e+02 9.7992e-06
6.1443e+02 9.7992e-06
6.1598e+02 9.7992e-06
6.1752e+02 9.7992e-06
6.1907e+02 9.7992e-06
6.2062e+02 9.7992e-06
6.2216e+02 9.7992e-06
6.2371e+02 9.7992e-06
6.2526e+02 9.7992e-06
6.2680e+02 9.7992e-06
6.2835e+02 9.7992e-06
6.2990e+02 9.7992e-06
6.3144e+02 9.7992e-06
6.3299e+02 9.7992e-06
6.3454e+02 9.7992e-06
6.3609e+02 9.7992e-06
6.3763e+02 9.7992e-06
6.3918e+02 9.7992e-06
6.4073e+02 9.7992e-06
6.4227e+02 9.7992e-06
6.4382e+02 9.7992e-06
6.4537e+02 9.7992e-06
6.4691e+02 9.7992e-06
6.4846e+02 9.7992e-06
6.5001e+02 9.7992e-06
6.5155e+02 9.7992e-06
6.5310e+02 9.7992e-06
6.5465e+02 9.7992e-06
6.5619e+02 9.7992e-06
6.5774e+02 9.7992e-06
6.5929e+02 9.7992e-06
6.6083e+02 9.7992e-06
6.6238e+02 9.7992e-06
6.6393e+02 9.7992e-06
6.6547e+02 9.7992e-06
6.6702e+02 9.7992e-06
6.6857e+02 9.7992e-06
6.7011e+02 9.7992e-06
6.7166e+02 9.7992e-06
6.7321e+02 9.7992e-06
6.7476e+02 9.7992e-06
6.7630e+02 9.7992e-06
6.7785e+02 9.7992e-06
6.7940e+02 9.7992e-06
6.8094e+02 9.7992e-06
6.8249e+02 9.7992e-06
6.8404e+02 9.7992e-06
6.8558e+02 9.7992e-06
6.8713e+02 9.7992e-06
6.8868e+02 9.7992e-06
6.9022e+02 9.7992e-06
6.9177e+02 9.7992e-06
6.9332e+02 9.7992e-06
6.9486e+02 9.7992e-06
6.9641e+02 9.7992e-06
6.9796e+02 9.7992e-06
6.9950e+02 9.7992e-06
7.0105e+02 9.7992e-06
7.0260e+02 9.7992e-06
7.0414e+02 9.7992e-06
7.0569e+02 9.7992e-06
7.0724e+02 9.7992e-06
7.0878e+02 9.7992e-06
7.1033e+02 9.7992e-06
7.1188e+02 9.7992e-06
7.1343e+02 9.7992e-06
7.1497e+02 9.7992e-06
7.1652e+02 9.7992e-06
7.1807e+02 9.7992e-06
7.1961e+02 9.7992e-06
7.2116e+02 9.7992e-06
7.2271e+02 9.7992e-06
7.2425e+02 9.7992e-06
7.2580e+02 9.7992e-06
7.2735e+02 9.7992e-06
7.2889e+02 9.7992e-06
7.3044e+02 9.7992e-06
7.3199e+02 9.7992e-06
7.3353e+02 9.7992e-06
7.3508e+02 9.7992e-06
7.3663e+02 9.7992e-06
7.3817e+02 9.7992e-06
7.3972e+02 9.7992e-06
7.4127e+02 9.7992e-06
7.4281e+02 9.7992e-06
7.4436e+02 9.7992e-06
7.4591e+02 9.7992e-06
7.4745e+02 9.7992e-06
7.4900e+02 9.7992e-06
7.5055e+02 9.7992e-06
7.5210e+02 9.7992e-06
7.5364e+02 9.7992e-06
7.5519e+02 9.7992e-06
7.5674e+02 9.7992e-06
7.5828e+02 9.7992e-06
7.5983e+02 9.7992e-06
7.6138e+02 9.7992e-06
7.6292e+02 9.7992e-06
7.6447e+02 9.7992e-06
7.6602e+02 9.7992e-06
7.6756e+02 9.7992e-06
7.6911e+02 9.7992e-06
7.7066e+02 9.7992e-06
7.7220e+02 9.7992e-06
7.7375e+02 9.7992e-06
7.7530e+02 9.7992e-06
7.7684e+02 9.7992e-06
7.7839e+02 9.7992e-06
7.7994e+02 9.7992e-06
7.8148e+02 9.7992e-06
7.8303e+02 9.7992e-06
7.8458e+02 9.7992e-06
7.8612e+02 9.7992e-06
7.8767e+02 9.7992e-06
7.8922e+02 9.7992e-06
7.9077e+02 9.7992e-06
7.9231e+02 9.7992e-06
7.9386e+02 9.7992e-06
7.9541e+02 9.7992e-06
7.9695e+02 9.7992e-06
7.9850e+02 9.7992e-06
8.0005e+02 9.7992e-06
8.0159e+02 9.7992e-06
8.0314e+02 9.7992e-06
8.0469e+02 9.7992e-06
8.0623e+02 9.7992e-06
8.0778e+02 9.7992e-06
8.0933e+02 9.7992e-06
8.1087e+02 9.7992e-06
8.1242e+02 9.7992e-06
8.1397e+02 9.7992e-06
8.1551e+02 9.7992e-06
8.1706e+02 9.7992e-06
8.1861e+02 9.7992e-06
8.2015e+02 9.7992e-06
8.2170e+02 9.7992e-06
8.2325e+02 9.7992e-06
8.2480e+02 9.7992e-06
8.2634e+02 9.7992e-06
8.2789e+02 9.7992e-06
8.2944e+02 9.7992e-06
8.3098e+02 9.7992e-06
8.3253e+02 9.7992e-06
8.3408e+02 9.7992e-06
8.3562e+02 9.7992e-06
8.3717e+02 9.7992e-06
8.3872e+02 9.7992e-06
8.4026e+02 9.7992e-06
8.4181e+02 9.7992e-06
8.4336e+02 9.7992e-06
8.4490e+02 9.7992e-06
8.4645e+02 9.7992e-06
8.4800e+02 9.7992e-06
8.4954e+02 9.7992e-06
8.5109e+02 9.7992e-06
8.5264e+02 9.7992e-06
8.5418e+02 9.7992e-06
8.5573e+02 9.7992e-06
8.5728e+02 9.7992e-06
8.5882e+02 9.7992e-06
8.6037e+02 9.7992e-06
8.6192e+02 9.7992e-06
8.6347e+02 9.7992e-06
8.6501e+02 9.7992e-06
8.6656e+02 9.7992e-06
8.6811e+02 9.7992e-06
8.6965e+02 9.7992e-06
8.7120e+02 9.7992e-06
8.7275e+02 9.7992e-06
8.7429e+02 9.7992e-06
8.7584e+02 9.7992e-06
8.7739e+02 9.7992e-06
8.7893e+02 9.7992e-06
8.8048e+02 9.7992e-06
8.8203e+02 9.7992e-06
8.8357e+02 9.7992e-06
8.8512e+02 9.7992e-06
8.8667e+02 9.7991e-06
8.8821e+02 9.7991e-06
8.8976e+02 9.7991e-06
8.9131e+02 9.7991e-06
8.9285e+02 9.7991e-06
8.9440e+02 9.7991e-06
8.9595e+02 9.7991e-06
8.9749e+02 9.7991e-06
8.9904e+02 9.7991e-06
9.0059e+02 9.7991e-06
9.0214e+02 9.7991e-06
9.0368e+02 9.7991e-06
9.0523e+02 9.7991e-06
9.0678e+02 9.7990e-06
9.0832e+02 9.7990e-06
9.0987e+02 9.7990e-06
9.1142e+02 9.7990e-06
9.1296e+02 9.7990e-06
9.1451e+02 9.7990e-06
9.1606e+02 9.7990e-06
9.1760e+02 9.7989e-06
9.1915e+02 9.7989e-06
9.2070e+02 9.7989e-06
9.2224e+02 9.7989e-06
9.2379e+02 9.7988e-06
9.2534e+02 9.7988e-06
9.2688e+02 9.7988e-06
9.2843e+02 9.7987e-06
9.2998e+02 9.7987e-06
9.3152e+02 9.7987e-06
9.3307e+02 9.7986e-06
9.3462e+02 9.7986e-06
9.3616e+02 9.7985e-06
9.3771e+02 9.7985e-06
9.3926e+02 9.7984e-06
9.4081e+02 9.7983e-06
9.4235e+02 9.7983e-06
9.4390e+02 9.7982e-06
9.4545e+02 9.7981e-06
9.4699e+02 9.7980e-06
9.4854e+02 9.7979e-06
9.5009e+02 9.7979e-06
9.5163e+02 9.7977e-06
9.5318e+02 9.7976e-06
9.5473e+02 9.7975e-06
9.5627e+02 9.7974e-06
9.5782e+02 9.7973e-06
9.5937e+02 9.7971e-06
9.6091e+02 9.7970e-06
9.6246e+02 9.7968e-06
9.6401e+02 9.7966e-06
9.6555e+02 9.7964e-06
9.6710e+02 9.7962e-06
9.6865e+02 9.7960e-06
9.7019e+02 9.7958e-06
9.7174e+02 9.7955e-06
9.7329e+02 9.7953e-06
9.7483e+02 9.7950e-06
9.7638e+02 9.7947e-06
9.7793e+02 9.7944e-06
9.7948e+02 9.7941e-06
9.8102e+02 9.7937e-06
9.8257e+02 9.7933e-06
9.8412e+02 9.7929e-06
9.8566e+02 9.7925e-06
9.8721e+02 9.7921e-06
9.8876e+02 9.7916e-06
9.9030e+02 9.7911e-06
9.9185e+02 9.7905e-06
9.9340e+02 9.7900e-06
9.9494e+02 9.7894e-06
9.9649e+02 9.7887e-06
9.9804e+02 9.7881e-06
9.9958e+02 9.7873e-06
1.0011e+03 9.7866e-06
1.0027e+03 9.7858e-06
1.0042e+03 9.7850e-06
1.0058e+03 9.7841e-06
1.0073e+03 9.7831e-06
1.0089e+03 9.7821e-06
1.0104e+03 9.7811e-06
1.0120e+03 9.7800e-06
1.0135e+03 9.7789e-06
1.0151e+03 9.7776e-06
1.0166e+03 9.7764e-06
1.0181e+03 9.7750e-06
1.0197e+03 9.7736e-06
1.0212e+03 9.7721e-06
1.0228e+03 9.7705e-06
1.0243e+03 9.7689e-06
1.0259e+03 9.7672e-06
1.0274e+03 9.7654e-06
1.0290e+03 9.7635e-06
1.0305e+03 9.7615e-06
1.0321e+03 9.7594e-06
1.0336e+03 9.7572e-06
1.0352e+03 9.7549e-06
1.0367e+03 9.7525e-06
1.0383e+03 9.7500e-06
1.0398e+03 9.7474e-06
1.0413e+03 9.7446e-06
1.0429e+03 9.7417e-06
1.0444e+03 9.7387e-06
1.0460e+03 9.7356e-06
1.0475e+03 9.7323e-06
1.0491e+03 9.7289e-06
1.0506e+03 9.7254e-06
1.0522e+03 9.7217e-06
1.0537e+03 9.7178e-06
1.0553e+03 9.7138e-06
1.0568e+03 9.7096e-06
1.0584e+03 9.7053e-06
1.0599e+03 9.7007e-06
1.0615e+03 9.6960e-06
1.0630e+03 9.6911e-06
1.0645e+03 9.6861e-06
1.0661e+03 9.6808e-06
1.0676e+03 9.6753e-06
1.0692e+03 9.6696e-06
1.0707e+03 9.6637e-06
1.0723e+03 9.6576e-06
1.0738e+03 9.6513e-06
1.0754e+03 9.6447e-06
1.0769e+03 9.6380e-06
1.0785e+03 9.6309e-06
1.0800e+03 9.6237e-06
1.0816e+03 9.6162e-06
1.0831e+03 9.6084e-06
1.0847e+03 9.6004e-06
1.0862e+03 9.5921e-06
1.0878e+03 9.5835e-06
1.0893e+03 9.5747e-06
1.0908e+03 9.5656e-06
1.0924e+03 9.5562e-06
1.0939e+03 9.5466e-06
1.0955e+03 9.5366e-06
1.0970e+03 9.5264e-06
1.0986e+03 9.5158e-06
1.1001e+03 9.5050e-06
1.1017e+03 9.4938e-06
1.1032e+03 9.4823e-06
1.1048e+03 9.4706e-06
1.1063e+03 9.4585e-06
1.1079e+03 9.4460e-06
1.1094e+03 9.4333e-06
1.1110e+03 9.4202e-06
1.1125e+03 9.4068e-06
1.1140e+03 9.3931e-06
1.1156e+03 9.3790e-06
1.1171e+03 9.3646e-06
1.1187e+03 9.3498e-06
1.1202e+03 9.3348e-06
1.1218e+03 9.3193e-06
1.1233e+03 9.3036e-06
1.1249e+03 9.2874e-06
1.1264e+03 9.2710e-06
1.1280e+03 9.2542e-06
1.1295e+03 9.2371e-06
1.1311e+03 9.2196e-06
1.1326e+03 9.2017e-06
1.1342e+03 9.1836e-06
1.1357e+03 9.1651e-06
1.1372e+03 9.1462e-06
1.1388e+03 9.1270e-06
1.1403e+03 9.1075e-06
1.1419e+03 9.0876e-06
1.1434e+03 9.0675e-06
1.1450e+03 9.0470e-06
1.1465e+03 9.0261e-06
1.1481e+03 9.0050e-06
1.1496e+03 8.9835e-06
1.1512e+03 8.9618e-06
1.1527e+03 8.9397e-06
1.1543e+03 8.9173e-06
1.1558e+03 8.8947e-06
1.1574e+03 8.8717e-06
1.1589e+03 8.8485e-06
1.1605e+03 8.8250e-06
1.1620e+03 8.8012e-06
1.1635e+03 8.7772e-06
1.1651e+03 8.7529e-06
1.1666e+03 8.7283e-06
1.1682e+03 8.7036e-06
1.1697e+03 8.6786e-06
1.1713e+03 8.6533e-06
1.1728e+03 8.6279e-06
1.1744e+03 8.6023e-06
1.1759e+03 8.5764e-06
1.1775e+03 8.5504e-06
1.1790e+03 8.5242e-06
1.1806e+03 8.4979e-06
1.1821e+03 8.4714e-06
1.1837e+03 8.4447e-06
1.1852e+03 8.4180e-06
1.1867e+03 8.3911e-06
1.1883e+03 8.3641e-06
1.1898e+03 8.3369e-06
1.1914e+03 8.3098e-06
1.1929e+03 8.2825e-06
1.1945e+03 8.2551e-06
1.1960e+03 8.2277e-06
1.1976e+03 8.2003e-06
1.1991e+03 8.1728e-06
1.2007e+03 8.1453e-06
1.2022e+03 8.1178e-06
1.2038e+03 8.0904e-06
1.2053e+03 8.0629e-06
1.2069e+03 8.0354e-06
1.2084e+03 8.0080e-06
1.2099e+03 7.9807e-06
1.2115e+03 7.9534e-06
1.2130e+03 7.9261e-06
1.2146e+03 7.8990e-06
1.2161e+03 7.8719e-06
1.2177e+03 7.8450e-06
1.2192e+03 7.8182e-06
1.2208e+03 7.7915e-06
1.2223e+03 7.7649e-06
1.2239e+03 7.7385e-06
1.2254e+03 7.7123e-06
1.2270e+03 7.6862e-06
1.2285e+03 7.6603e-06
1.2301e+03 7.6346e-06
1.2316e+03 7.6091e-06
1.2332e+03 7.5838e-06
1.2347e+03 7.5587e-06
1.2362e+03 7.5339e-06
1.2378e+03 7.5093e-06
1.2393e+03 7.4849e-06
1.2409e+03 7.4608e-06
1.2424e+03 7.4369e-06
1.2440e+03 7.4133e-06
1.2455e+03 7.3900e-06
1.2471e+03 7.3669e-06
1.2486e+03 7.3442e-06
1.2502e+03 7.3217e-06
1.2517e+03 7.2995e-06
1.2533e+03 7.2777e-06
1.2548e+03 7.2561e-06
1.2564e+03 7.2348e-06
1.2579e+03 7.2139e-06
1.2594e+03 7.1933e-06
1.2610e+03 7.1730e-06
1.2625e+03 7.1530e-06
1.2641e+03 7.1334e-06
1.2656e+03 7.1141e-06
1.2672e+03 7.0951e-06
1.2687e+03 7.0765e-06
1.2703e+03 7.0582e-06
1.2718e+03 7.0403e-06
1.2734e+03 7.0227e-06
1.2749e+03 7.0054e-06
1.2765e+03 6.9885e-06
1.2780e+03 6.9719e-06
1.2796e+03 6.9557e-06
1.2811e+03 6.9398e-06
1.2826e+03 6.9243e-06
1.2842e+03 6.9091e-06
1.2857e+03 6.8942e-06
1.2873e+03 6.8797e-06
1.2888e+03 6.8655e-06
1.2904e+03 6.8516e-06
1.2919e+03 6.8381e-06
1.2935e+03 6.8249e-06
1.2950e+03 6.8121e-06
1.2966e+03 6.7996e-06
1.2981e+03 6.7873e-06
1.2997e+03 6.7755e-06
1.3012e+03 6.7639e-06
1.3028e+03 6.7526e-06
1.3043e+03 6.7417e-06
1.3059e+03 6.7310e-06
1.3074e+03 6.7207e-06
1.3089e+03 6.7106e-06
1.3105e+03 6.7008e-06
1.3120e+03 6.6914e-06
1.3136e+03 6.6822e-06
1.3151e+03 6.6732e-06
1.3167e+03 6.6646e-06
1.3182e+03 6.6562e-06
1.3198e+03 6.6481e-06
1.3213e+03 6.6403e-06
1.3229e+03 6.6327e-06
1.3244e+03 6.6253e-06
1.3260e+03 6.6182e-06
1.3275e+03 6.6114e-06
1.3291e+03 6.6047e-06
1.3306e+03 6.5983e-06
1.3321e+03 6.5921e-06
1.3337e+03 6.5862e-06
1.3352e+03 6.5804e-06
1.3368e+03 6.5749e-06
1.3383e+03 6.5695e-06
1.3399e+03 6.5644e-06
1.3414e+03 6.5594e-06
1.3430e+03 6.5546e-06
1.3445e+03 6.5501e-06
1.3461e+03 6.5456e-06
1.3476e+03 6.5414e-06
1.3492e+03 6.5373e-06
1.3507e+03 6.5334e-06
1.3523e+03 6.5297e-06
1.3538e+03 6.5261e-06
1.3553e+03 6.5226e-06
1.3569e+03 6.5193e-06
1.3584e+03 6.5161e-06
1.3600e+03 6.5131e-06
